Frequency,dB,Rad,Mag,Fit
5.311812,1.149454117,-0.644581657,1.0949885337663496,0.48089543666260215
5.3118145,0.909009814,-0.658166508,1.0650925729890586,0.4898439598171664
5.311817,0.698475718,-0.667590503,1.0395865487464917,0.49894708086853073
5.3118195,0.534743071,-0.684477141,1.020173455465448,0.50820728047113
5.311822,0.368510216,-0.688228537,1.0008347507326483,0.5176270526134632
5.3118245,0.012354063,-0.705110315,0.9606265127718296,0.5272089020076546
5.311827,-0.17189607,-0.720172688,0.9404637536854044,0.5369553411898067
5.3118295,-0.396454245,-0.728713046,0.9164613483403483,0.5468688873631966
5.311832,-0.752139986,-0.745164923,0.8796904278307321,0.5569520589467242
5.3118345,-0.98231554,-0.75520564,0.8566848537500776,0.5672073718131131
5.311837,-1.358758926,-0.76900887,0.8203495029873099,0.5776373351972902
5.3118395,-1.737336159,-0.786170147,0.7853623141132722,0.5882444472545925
5.311842,-2.277272463,-0.807399403,0.7380286859572237,0.5990311902515469
5.3118445,-2.58299017,-0.814925629,0.7125040825104868,0.6100000253442598
5.311847,-3.109785557,-0.82699867,0.6705753543439718,0.6211533869795298
5.3118495,-3.822626829,-0.843990237,0.6177397160985503,0.6324936768189054
5.311852,-4.445198059,-0.857717834,0.5750120721970753,0.6440232572193085
5.3118545,-5.39949894,-0.866898549,0.5151834684096945,0.6557444442232242
5.311857,-6.676932335,-0.871930925,0.4447236739738487,0.6676595000377811
5.3118595,-7.655837536,-0.870324839,0.39732417363776884,0.6797706249780313
5.311862,-8.977599144,-0.859326849,0.3412376232622105,0.6920799488497144
5.3118645,-10.474469185,-0.832204085,0.28721915909358836,0.7045895217513962
5.311867,-12.404669762,-0.769613142,0.22998704727242208,0.717301304244954
5.3118695,-14.507136345,-0.678387557,0.18054274795414124,0.7302171569376339
5.311872,-17.680233002,-0.371035498,0.12529254055545497,0.743338829364075
5.3118745,-19.927963257,0.265483472,0.09672499206406591,0.7566679482132742
5.311877,-18.512800217,0.7386495,0.11384051578307174,0.77020600485404
5.3118795,-15.745901108,1.096751256,0.1565459405359386,0.7839543421454022
5.311882,-12.986340523,1.212403287,0.21508981174830727,0.7979141405164684
5.3118845,-10.901948929,1.324004651,0.2734257544788023,0.8120864033031754
5.311887,-8.864884377,1.357375524,0.3456946407228555,0.8264719413328694
5.3118895,-7.423941135,1.374811772,0.40807483045685544,0.8410713567569891
5.311892,-6.214398861,1.367507787,0.46904760478842017,0.855885026100395
5.3118945,-5.171221733,1.359610049,0.5289026937922539,0.870913082610636
5.311897,-3.967735052,1.344145472,0.6075053585419699,0.8861553978149784
5.3118995,-3.232681513,1.325174977,0.6611542438633282,0.9016115623814356
5.311902,-2.606670618,1.314385579,0.7105642193845054,0.9172808662794147
5.3119045,-1.798019767,1.284619161,0.7798945352978139,0.9331622782805737
5.311907,-1.434526563,1.266090085,0.8132246560103974,0.9492544248451424
5.3119095,-1.119368553,1.260763763,0.8432734712445331,0.9655555684497609
5.311912,-0.445311606,1.225278206,0.9113208054147526,0.9820635854305915
5.3119145,-0.077691294,1.214268698,0.950719279316526,0.9987759433870017
5.311917,0.397145331,1.185721609,1.0041396868984835,1.0156896783284206
5.3119195,0.815148175,1.160990829,1.0536449121249014,1.032801371556238
5.311922,1.130543351,1.141173049,1.092607137316414,1.0501071264933695
5.3119245,1.416702271,1.116701994,1.1292028852753553,1.0676025455677394
5.311927,1.660785317,1.101523308,1.161384783142714,1.0852827073139883
5.3119295,1.958327889,1.07263307,1.201858280691981,1.1031421438696132
5.311932,2.181255579,1.057378417,1.2331038240211303,1.1211748190598902
5.3119345,2.447863817,1.038096664,1.2715400870576503,1.139374107284194
5.311937,2.657493591,1.019569186,1.3026014136619635,1.1577327734410627
5.3119395,2.87545228,0.992840037,1.3357017027506506,1.1762429541013186
5.311942,3.02268815,0.977772137,1.3585363809634396,1.1948961402927716
5.3119445,3.154623508,0.966775612,1.3793295519573816,1.2136831620474087
5.311947,3.39042449,0.937832244,1.417287935018955,1.2325941751043528
5.3119495,3.444392681,0.928436412,1.4261214092687238,1.251618650037224
5.311952,3.717477083,0.901221836,1.4716709586099013,1.270745364129581
5.3119545,3.760942698,0.892161562,1.479053898545459,1.2899623963219042
5.311957,3.918540239,0.87258846,1.506134919059803,1.3092571255561876
5.3119595,4.057301998,0.850249065,1.5303894583315407,1.328616232849359
5.311962,4.161826611,0.839494289,1.5489171776398791,1.3480257073719362
5.3119645,4.282048702,0.816318795,1.5705049179680826,1.36747085694084
5.311967,4.381645679,0.80615584,1.5886167947181016,1.3869363230765157
5.3119695,4.475755215,0.78947493,1.6059226607502894,1.4064061009909161
5.311972,4.575926304,0.771473626,1.6245503677658741,1.425863564697509
5.3119745,4.649551392,0.764541817,1.6383792356668943,1.4452914974446156
5.311977,4.746302128,0.742578994,1.6567308984053517,1.4646721276215044
5.3119795,4.816221237,0.724946604,1.6701209638807557,1.4839871702346872
5.311982,4.8901577,0.713751806,1.6843981300441773,1.5032178739999251
5.3119845,4.932831764,0.700233201,1.692693996193198,1.522345073982674
5.311987,4.998287201,0.68654422,1.7054980440021488,1.541349249792322
5.3119895,5.061421394,0.677249921,1.7179397766005393,1.5602105890209805
5.311992,5.117904663,0.663751689,1.7291477295489115,1.5789090557776249
5.3119945,5.17594099,0.649283401,1.7407400246122509,1.5974244639430994
5.311997,5.230926991,0.635161523,1.7517947286264852,1.6157365547368865
5.3119995,5.269920349,0.620325186,1.7596766980154828,1.6338250780979005
5.312002,5.345108509,0.608978455,1.7749752065448763,1.6516698773023606
5.3120045,5.351304531,0.600451146,1.7762418250974163,1.6692509761670506
5.312007,5.382546902,0.587955928,1.7826423127467415,1.6865486681240036
5.3120095,5.44079113,0.575733749,1.7946361932169699,1.7035436063499025
5.312012,5.469816685,0.563630681,1.8006433433862936,1.7202168942121963
5.3120145,5.514146328,0.557693895,1.8098566672820762,1.736550175041068
5.312017,5.566750526,0.543594721,1.8208509284017118,1.7525257204270868
5.3120195,5.558012009,0.539572116,1.819019966212865,1.7681265161046402
5.312022,5.58892107,0.527827975,1.825504547316493,1.783336344529703
5.3120245,5.62237978,0.514903255,1.832550091473671,1.798139863275351
5.312027,5.637020588,0.506078438,1.8356416157743047,1.8125226784053217
5.3120295,5.65271616,0.500335231,1.8389616547636023,1.8264714120433037
5.312032,5.688189983,0.489216001,1.8464874692528555,1.8399737633885054
5.3120345,5.703215122,0.476963063,1.8496843485476728,1.8530185626121554
5.312037,5.714709282,0.470622509,1.852133682139244,1.8655958169890556
5.3120395,5.751834869,0.463604115,1.8600670907295151,1.877696748894689
5.312042,5.757489681,0.45530424,1.8612784524648933,1.8893138253038
5.3120445,5.778449059,0.45003957,1.8657752105345708,1.9004407785768198
5.312047,5.814340591,0.436086537,1.8735008529913952,1.9110726184335771
5.3120495,5.820885658,0.429195707,1.8749131216517867,1.9212056351318245
5.312052,5.834028244,0.425769051,1.877752192793017,1.9308373939870012
5.3120545,5.813827515,0.416258137,1.8733901884568729,1.9399667214567355
5.312057,5.860784531,0.40464559,1.8835453977748313,1.9485936831879656
5.3120595,5.857231617,0.402113156,1.8827751017428622,1.9567195543994047
5.312062,5.86513567,0.39608093,1.8844891837634519,1.964346783175545
5.3120645,5.876437187,0.383872567,1.8869427548961715,1.9714789472467977
5.312067,5.88196373,0.383650293,1.888143735911685,1.978120704912847
5.3120695,5.881371021,0.378350802,1.888014896880827,1.9842777408071053
5.312072,5.914189339,0.370252562,1.8951619686773102,1.989956707230829
5.3120745,5.910027504,0.361000141,1.894254121302529,1.9951651618024742
5.312077,5.899470806,0.355468988,1.8919532721803478,1.9999115021735203
5.3120795,5.910155296,0.349289955,1.894281990906393,2.0042048985424032
5.312082,5.915991783,0.343063551,1.895555282190647,2.0080552247135004
5.3120845,5.926773071,0.338544566,1.8979095851870202,2.011472988360299
5.312087,5.938733101,0.329735762,1.9005247105711491,2.0144692611734474
5.3120895,5.938434601,0.324089627,1.9004593981044011,2.0170556094933922
5.312092,5.928922176,0.322002941,1.8983792332932927,2.019244025989013
5.3120945,5.954740524,0.313891584,1.9040304600823872,2.0210468628872844
5.312097,5.942272186,0.313371669,1.9012992413616288,2.0224767672016473
5.3120995,5.945206642,0.303592841,1.9019416881070872,2.0235466183483575
5.312102,5.972799301,0.298652045,1.907993235567072,2.0242694684788054
5.3121045,5.960809231,0.297127651,1.9053612438087533,2.024658485805214
5.312107,5.954927921,0.287157375,1.904071539748384,2.0247269011279565
5.3121095,5.955010414,0.286933204,1.904089623482574,2.0244879577327866
5.312112,5.959105015,0.277605149,1.9049874388538017,2.023954864767425
5.3121145,5.955582619,0.275797379,1.9042150643455087,2.023140754163385
5.312117,5.975557804,0.271793998,1.9085992806733325,2.0220586411259895
5.3121195,5.954589844,0.265158117,1.9039974298651987,2.02072138817737
5.312122,5.952382565,0.262565679,1.9035136429683863,2.019141672703527
5.3121245,5.963329315,0.25772798,1.9059141367442485,2.017331957926462
5.312127,5.966337204,0.253444053,1.9065742615143637,2.015304467202125
5.3121295,5.95883894,0.249533217,1.9049290842360804,2.0130711615101706
5.312132,5.97233963,0.248954962,1.9078922642229574,2.010643720007397
5.3121345,5.966601849,0.241657418,1.9066323526314728,2.008033523481175
5.312137,5.972547531,0.236708066,1.9079379311002986,2.005251640542562
5.3121395,5.971532345,0.23595534,1.9077149489106986,2.002308816387805
5.312142,5.971901417,0.230396208,1.907796011318787,1.999215463953599
5.3121445,5.962496758,0.227854021,1.9057314604523963,1.9959816572900244
5.312147,5.959825516,0.22220013,1.905145465531584,1.9926171269745387
5.3121495,5.969875813,0.220323117,1.9073511531842724,1.9891312574013817
5.312152,5.963058472,0.212949091,1.9058547075463177,1.9855330857595102
5.3121545,5.95224762,0.21263076,1.903484069986932,1.9818313025594647
5.312157,5.97112751,0.210372599,1.9076260355332832,1.9780342535341917
5.3121595,5.949325562,0.205677878,1.9028438183135172,1.9741499427708977
5.312162,5.959978104,0.203973605,1.9051789341688632,1.9701860369305122
5.3121645,5.942203999,0.19750462,1.9012843156156314,1.9661498704206508
5.312167,5.950266838,0.194582084,1.903050037635367,1.9620484513963976
5.3121695,5.941502571,0.193698231,1.9011307838228009,1.9578884684702347
5.312172,5.927121639,0.189053262,1.8979857505368194,1.953676298031379
5.3121745,5.930574417,0.186029609,1.8987403797589453,1.9494180120520503
5.312177,5.932798862,0.184237751,1.899226706963301,1.9451193863182186
5.3121795,5.93647337,0.180529798,1.9000303321967527,1.9407859089786472
5.312182,5.960407734,0.180024763,1.9052731723302028,1.9364227893446826
5.3121845,5.953107834,0.173613968,1.90367259238331,1.932034966870242
5.312187,5.919458389,0.172651152,1.896311964011401,1.9276271202498827
5.3121895,5.941664696,0.165815999,1.9011662693882077,1.9232036765793878
5.312192,5.936772346,0.165390709,1.9000957340460742,1.9187688205294287
5.3121945,5.932499409,0.162942765,1.899161230730561,1.914326503487054
5.312197,5.931760311,0.162294269,1.898999634554781,1.9098804526361195
5.3121995,5.93140316,0.158347913,1.898921552089653,1.9054341799195473
5.312202,5.915550709,0.155218416,1.8954590273500442,1.9009909908861133
5.3122045,5.910487175,0.152470466,1.8943543708754782,1.8965539933733513
5.312207,5.911006927,0.150420715,1.8944677298948758,1.8921261060151273
5.3122095,5.91416502,0.148913432,1.8951566625565421,1.8877100665548394
5.312212,5.907304764,0.145425207,1.893660428151586,1.8833084399498983
5.3122145,5.921135426,0.144456083,1.8966781317257333,1.8789236262559672
5.312217,5.904344559,0.139783533,1.8930151669067132,1.8745578682804445
5.3122195,5.896235466,0.139532139,1.8912486843380818,1.8702132590077416
5.312222,5.89477396,0.135885498,1.890930485640695,1.8658917487684088
5.3122245,5.887658596,0.132599057,1.8893820951094749,1.8615951521802245
5.312227,5.87975502,0.131812859,1.8876636662890047,1.857325154836595
5.3122295,5.887693882,0.127383356,1.8893897706470197,1.8530833197516348
5.312232,5.887735367,0.124824091,1.889398794653205,1.8488710935615977
5.3122345,5.877006531,0.126741742,1.887066444557359,1.8446898124849231
5.312237,5.867539406,0.122332396,1.8850107700983485,1.8405407080440734
5.3122395,5.871929646,0.119849997,1.8859637803049916,1.836424912553066
5.312242,5.89729166,0.116339726,1.8914786719443548,1.8323434643738157
5.3122445,5.868355751,0.114316648,1.8851879415219575,1.8282973129550557
5.312247,5.848759651,0.109586915,1.8809395925593126,1.8242873236376274
5.3122495,5.879355907,0.112173003,1.887576930924926,1.820314282261003
5.312252,5.862801552,0.105935155,1.8839828419434832,1.8163788995554029
5.3122545,5.849822998,0.106106804,1.8811698756954358,1.8124818153345605
5.312257,5.847225189,0.105447356,1.8806073323624297,1.8086236024941575
5.3122595,5.843964577,0.102765378,1.879901500225908,1.8048047708224983
5.312262,5.844292164,0.097808361,1.8799724017606445,1.8010257706300328
5.3122645,5.869595528,0.099337515,1.8854570422769137,1.7972869962030156
5.312267,5.835464478,0.095467975,1.8780627095778815,1.7935887890958362
5.3122695,5.838169575,0.094091853,1.8786476966310806,1.7899314412486338
5.312272,5.831925392,0.089133064,1.8772976444191172,1.7863151979632155
5.3122745,5.838472366,0.088758782,1.878713187623184,1.7827402607236364
5.312277,5.821809292,0.085819875,1.8751125054403863,1.7792067898756347
5.3122795,5.830811501,0.083395583,1.8770569125010126,1.7757149071696663
5.312282,5.819617271,0.083568239,1.8746393509845418,1.7722646981734305
5.3122845,5.831437588,0.082469236,1.877192217384675,1.7688562145596465
5.312287,5.803472519,0.078861277,1.8711581327946614,1.765489476273472
5.3122895,5.808152676,0.078207853,1.8721666274846844,1.7621644735921098
5.312292,5.798316002,0.074777053,1.8700476195772548,1.758881169063938
5.3122945,5.795941353,0.073748049,1.8695364342037095,1.7556394993561282
5.312297,5.817985535,0.072714543,1.8742872132834438,1.7524393769976483
5.3122995,5.80156517,0.071555152,1.8707472871686184,1.7492806920295405
5.312302,5.820803165,0.068941838,1.8748953150159524,1.7461633135657866
5.3123045,5.795731068,0.06627405,1.8694911733580635,1.7430870912690906
5.312307,5.764698505,0.062880121,1.8628238552775107,1.7400518567457364
5.3123095,5.785491467,0.060934524,1.867288570587022,1.7370574248635167
5.312312,5.790403366,0.061962213,1.8683448270112701,1.7341035949954962
5.3123145,5.755999565,0.059475041,1.8609591664706373,1.7311901521995485
5.312317,5.791962624,0.057271903,1.8686802553026116,1.7283168683214416
5.3123195,5.784011841,0.058381356,1.8669705083596153,1.7254835030458182
5.312322,5.751632214,0.051951723,1.8600236930449277,1.7226898048824741
5.3123245,5.750636578,0.050587348,1.859810496643433,1.7199355120973066
5.312327,5.770641804,0.048225661,1.8640989241816186,1.7172203535897888
5.3123295,5.761378765,0.049065035,1.8621120215453042,1.7145440497197304
5.312332,5.749518394,0.048052747,1.8595710880655283,1.7119063130859693
5.3123345,5.745610237,0.04393054,1.8587345749007733,1.7093068492585939
5.312337,5.741550922,0.041578786,1.8578661058523251,1.7067453574725937
5.3123395,5.742684841,0.043397874,1.8581086609941264,1.704221531271406
5.312342,5.739062309,0.039846087,1.8573338808698208,1.7017350591209908
5.3123445,5.719540119,0.04050147,1.853164071066957,1.6992856249826023
5.312347,5.738390923,0.035150368,1.8571903216232213,1.6968729088517918
5.3123495,5.724936485,0.032225418,1.85431576181517,1.694496587264565
5.312352,5.716610909,0.031700903,1.8525392195269723,1.6921563337724597
5.3123545,5.700129032,0.031804514,1.8490272738376383,1.6898518193882262
5.312357,5.703915596,0.027544047,1.849833522448548,1.6875827130029029
5.3123595,5.681015491,0.025854122,1.84496291156082,1.6853486817806018
5.312362,5.689550877,0.024378443,1.8467767971962086,1.6831493915203908
5.3123645,5.691529751,0.024615134,1.847197589431854,1.6809845070027472
5.312367,5.689455032,0.02273488,1.8467564189329648,1.6788536923097463
5.3123695,5.697891235,0.020505933,1.84855095939107,1.6767566111250896
5.312372,5.6770401,0.018566991,1.844118695126316,1.6746929270142903
5.3123745,5.671274662,0.019697528,1.842895029552605,1.6726623036861454
5.312377,5.695751667,0.012586075,1.8480956676984392,1.6706644052365165
5.3123795,5.682626724,0.012231146,1.8453051840260002,1.6686988963754166
5.312382,5.678090096,0.011619913,1.8443416353632884,1.6667654426376557
5.3123845,5.661569595,0.009426881,1.8408370444550157,1.6648637105820228
5.312387,5.653924942,0.010063802,1.8392175938237652,1.662993367969585
5.3123895,5.657637596,0.008039731,1.8400039079946118,1.6611540839356147
5.312392,5.641274452,0.004130518,1.8365408307683624,1.6593455291455883
5.3123945,5.646561146,0.002858295,1.837658987361587,1.6575673759400904
5.312397,5.6346035,0.002223264,1.8351308690093697,1.6558192984686295
5.3123995,5.62266922,-0.000501902,1.832611158578845,1.6541009728129796
5.312402,5.65294981,0.000835901,1.8390111234061581,1.6524120771006712
5.3124045,5.629658699,-0.006639861,1.8340864423762573,1.6507522916086073
5.312407,5.627299786,-0.007479306,1.8335884090029342,1.6491212988608648
5.3124095,5.599565983,-0.006938224,1.8277431492703913,1.6475187837123844
5.312412,5.620242119,-0.008084123,1.8320991429793854,1.645944433430803
5.3124145,5.615462303,-0.007685704,1.831091222305351,1.6443979377680444
5.312417,5.591500759,-0.012313908,1.826046798436577,1.642878989025638
5.3124195,5.606796265,-0.01334591,1.8292652271123049,1.6413872821135873
5.312422,5.589471817,-0.013522085,1.8256203009203211,1.6399225146031817
5.3124245,5.572568417,-0.018444253,1.8220709601174991,1.638484386774111
5.312427,5.570182323,-0.018477684,1.8215704891635793,1.6370726016562207
5.3124295,5.561436653,-0.021484929,1.8197373048283412,1.6356868650657728
5.312432,5.565718651,-0.022590699,1.8206346259814312,1.634326885639426
5.3124345,5.571471691,-0.026309029,1.8218409104017346,1.6329923748588901
5.312437,5.543216705,-0.025645628,1.8159241353743731,1.6316830470763624
5.3124395,5.560603619,-0.028406289,1.8195627884093055,1.6303986195336087
5.312442,5.544893742,-0.030454104,1.8162747806282502,1.6291388123778978
5.3124445,5.53249073,-0.031611539,1.8136830827616546,1.6279033486745382
5.312447,5.538393497,-0.034892857,1.8149160465261496,1.626691954416221
5.3124495,5.509875298,-0.037348496,1.8089669424217354,1.6255043585293953
5.312452,5.529657841,-0.039388839,1.81309164938055,1.6243402928774464
5.3124545,5.531376839,-0.038961947,1.8134505083435037,1.6231994922633324
5.312457,5.511960506,-0.042128088,1.8094012704308713,1.6220816944256815
5.3124595,5.477084637,-0.042800228,1.8021506692626938,1.6209866400367618
5.312462,5.490662575,-0.046288187,1.804970026474936,1.619914072696287
5.3124645,5.474524975,-0.04515192,1.8016196681616523,1.618863738923672
5.312467,5.462247849,-0.050790518,1.7990749562165755,1.6178353881484833
5.3124695,5.47498703,-0.052410228,1.8017155097567348,1.6168287726991992
5.312472,5.492257118,-0.053086454,1.8053014106665335,1.6158436477904123
5.3124745,5.483179569,-0.055566511,1.8034156911431318,1.6148797715082461
5.312477,5.459650993,-0.056238014,1.7985371598060254,1.6139369047961376
5.3124795,5.440659046,-0.058007598,1.7946089028719958,1.613014811435974
5.312482,5.45110178,-0.056918489,1.7967677943954126,1.6121132580315243
5.3124845,5.449143887,-0.0609209,1.7963628292416138,1.6112320139891017
5.312487,5.439854145,-0.063585422,1.7944426083835339,1.6103708514976216
5.3124895,5.422540665,-0.068569632,1.7908693298496015,1.6095295455077798
5.312492,5.413732052,-0.069135404,1.7890540778443726,1.6087078737104343
5.3124945,5.404067516,-0.069978361,1.7870645566118089,1.6079056165142585
5.312497,5.393602371,-0.076241625,1.7849127185642955,1.6071225570227368
5.3124995,5.402461052,-0.076636222,1.7867340677928036,1.6063584810102964
5.312502,5.378922462,-0.075300247,1.781898608587018,1.6056131768992508
5.3125045,5.382089615,-0.08011218,1.7825484642486373,1.6048864357335566
5.312507,5.378757954,-0.078944783,1.7818648603110698,1.6041780511548662
5.3125095,5.360610008,-0.085138772,1.778145790633589,1.6034878193768363
